k,Energy (eV)
0.0,-10.736337
0.02299,-10.733615
0.04598,-10.724091
0.06897,-10.710485
0.09195,-10.690076
0.11494,-10.664226
0.13793,-10.632933
0.16092,-10.596197
0.18391,-10.554018
0.2069,-10.509119
0.22989,-10.457417
0.25287,-10.402994
0.27586,-10.34585
0.29885,-10.283263
0.32184,-10.219316
0.34483,-10.151287
0.36782,-10.081898
0.3908,-10.011147
0.41379,-9.939036
0.43678,-9.866926
0.45977,-9.796175
0.48276,-9.725426
0.50575,-9.657396
0.52874,-9.592089
0.55172,-9.530863
0.57471,-9.475079
0.5977,-9.423377
0.62069,-9.377117
0.64368,-9.336299
0.66667,-9.302285
,
,
0.0,-9.436983
0.02299,-9.435622
0.04598,-9.43018
0.06897,-9.422016
0.09195,-9.411132
0.11494,-9.396165
0.13793,-9.379838
0.16092,-9.360789
0.18391,-9.340382
0.2069,-9.318612
0.22989,-9.295483
0.25287,-9.270992
0.27586,-9.247862
0.29885,-9.224731
0.32184,-9.204323
0.34483,-9.185275
0.36782,-9.167587
0.3908,-9.153982
0.41379,-9.143097
0.43678,-9.137655
0.45977,-9.134934
0.48276,-9.137655
0.50575,-9.144458
0.52874,-9.156703
0.55172,-9.17303
0.57471,-9.193439
0.5977,-9.216569
0.62069,-9.24242
0.64368,-9.270992
0.66667,-9.302285
,
,
0.0,-5.261363
0.02299,-5.257281
0.04598,-5.246396
0.06897,-5.23007
0.09195,-5.204218
0.11494,-5.172925
0.13793,-5.134829
0.16092,-5.089929
0.18391,-5.038228
0.2069,-4.979722
0.22989,-4.915775
0.25287,-4.845025
0.27586,-4.770194
0.29885,-4.689919
0.32184,-4.606924
0.34483,-4.521207
0.36782,-4.438212
0.3908,-4.364741
0.41379,-4.322563
0.43678,-4.333447
0.45977,-4.389231
0.48276,-4.461341
0.50575,-4.530731
0.52874,-4.589236
0.55172,-4.635496
0.57471,-4.666789
0.5977,-4.685837
0.62069,-4.69128
0.64368,-4.689919
0.66667,-4.688559
,
,
0.0,-1.296633
0.02299,-1.334729
0.04598,-1.440854
0.06897,-1.597321
0.09195,-1.78372
0.11494,-1.987807
0.13793,-2.200058
0.16092,-2.413669
0.18391,-2.624559
0.2069,-2.830006
0.22989,-3.02593
0.25287,-3.212329
0.27586,-3.387844
0.29885,-3.549753
0.32184,-3.698056
0.34483,-3.830032
0.36782,-3.947042
0.3908,-4.046365
0.41379,-4.12936
0.43678,-4.194668
0.45977,-4.243649
0.48276,-4.273582
0.50575,-4.287188
0.52874,-4.283106
0.55172,-4.266779
0.57471,-4.235485
0.5977,-4.196028
0.62069,-4.15113
0.64368,-4.106231
0.66667,-4.066773
,
,
0.0,-1.296633
0.02299,-1.306157
0.04598,-1.332008
0.06897,-1.380988
0.09195,-1.461263
0.11494,-1.582355
0.13793,-1.745624
0.16092,-1.940187
0.18391,-2.149716
0.2069,-2.364688
0.22989,-2.578299
0.25287,-2.787828
0.27586,-2.989194
0.29885,-3.182396
0.32184,-3.364714
0.34483,-3.532065
0.36782,-3.68309
0.3908,-3.806903
0.41379,-3.883095
0.43678,-3.889898
0.45977,-3.836836
0.48276,-3.75384
0.50575,-3.670845
0.52874,-3.627306
0.55172,-3.669484
0.57471,-3.759283
0.5977,-3.854523
0.62069,-3.942961
0.64368,-4.016432
0.66667,-4.066773
,
,
0.0,-0.326539
0.02299,-0.383684
0.04598,-0.527905
0.06897,-0.708862
0.09195,-0.889819
0.11494,-1.051728
0.13793,-1.185065
0.16092,-1.297993
0.18391,-1.404119
0.2069,-1.512965
0.22989,-1.627254
0.25287,-1.748345
0.27586,-1.8776
0.29885,-2.013658
0.32184,-2.155159
0.34483,-2.302101
0.36782,-2.450405
0.3908,-2.598708
0.41379,-2.747011
0.43678,-2.892593
0.45977,-3.034093
0.48276,-3.16743
0.50575,-3.281719
0.52874,-3.345666
0.55172,-3.311651
0.57471,-3.223214
0.5977,-3.11981
0.62069,-3.013685
0.64368,-2.911641
0.66667,-2.917084
,
,
0.0,-0.326539
0.02299,-0.3279
0.04598,-0.334703
0.06897,-0.35103
0.09195,-0.380962
0.11494,-0.42178
0.13793,-0.476203
0.16092,-0.544232
0.18391,-0.623146
0.2069,-0.715665
0.22989,-0.817709
0.25287,-0.930637
0.27586,-1.051728
0.29885,-1.180983
0.32184,-1.31432
0.34483,-1.453099
0.36782,-1.593239
0.3908,-1.733379
0.41379,-1.873519
0.43678,-2.012298
0.45977,-2.146995
0.48276,-2.27625
0.50575,-2.400063
0.52874,-2.515712
0.55172,-2.621838
0.57471,-2.717078
0.5977,-2.798713
0.62069,-2.8613
0.64368,-2.903477
0.66667,-2.816401
,
,
0.0,0.0
0.02299,-0.004082
0.04598,-0.016327
0.06897,-0.038096
0.09195,-0.06939
0.11494,-0.111568
0.13793,-0.16463
0.16092,-0.227217
0.18391,-0.300688
0.2069,-0.386405
0.22989,-0.481645
0.25287,-0.58641
0.27586,-0.699338
0.29885,-0.82043
0.32184,-0.948324
0.34483,-1.080301
0.36782,-1.214998
0.3908,-1.352417
0.41379,-1.489835
0.43678,-1.627254
0.45977,-1.763312
0.48276,-1.898009
0.50575,-2.028625
0.52874,-2.156519
0.55172,-2.278971
0.57471,-2.397342
0.5977,-2.51027
0.62069,-2.619117
0.64368,-2.72116
0.66667,-2.816401
,
,
0.0,0.768728
0.02299,0.827233
0.04598,0.976896
0.06897,1.168738
0.09195,1.375546
0.11494,1.582355
0.13793,1.778278
0.16092,1.94699
0.18391,2.06536
0.2069,2.102096
0.22989,2.073524
0.25287,2.01638
0.27586,1.949711
0.29885,1.8776
0.32184,1.795966
0.34483,1.704807
0.36782,1.601403
0.3908,1.487114
0.41379,1.366022
0.43678,1.240849
0.45977,1.114315
0.48276,0.993223
0.50575,0.877574
0.52874,0.771449
0.55172,0.676208
0.57471,0.593213
0.5977,0.526544
0.62069,0.477564
0.64368,0.44627
0.66667,0.435386
,
,
0.0,1.141527
0.02299,1.178262
0.04598,1.280306
0.06897,1.434051
0.09195,1.61773
0.11494,1.815014
0.13793,2.009577
0.16092,2.190534
0.18391,2.351082
0.2069,2.483058
0.22989,2.589184
0.25287,2.670819
0.27586,2.736126
0.29885,2.79191
0.32184,2.847694
0.34483,2.904838
0.36782,2.970146
0.3908,3.044978
0.41379,3.127973
0.43678,3.221853
0.45977,3.325257
0.48276,3.439546
0.50575,3.561998
0.52874,3.693974
0.55172,3.834114
0.57471,3.981057
0.5977,4.133442
0.62069,4.285827
0.64368,4.43413
0.66667,4.564746
,
,
0.0,3.488527
0.02299,3.453152
0.04598,3.356551
0.06897,3.221853
0.09195,3.07219
0.11494,2.923886
0.13793,2.789189
0.16092,2.685785
0.18391,2.639525
0.2069,2.680342
0.22989,2.79055
0.25287,2.929329
0.27586,3.07355
0.29885,3.206887
0.32184,3.304849
0.34483,3.336142
0.36782,3.3307
0.3908,3.337502
0.41379,3.367435
0.43678,3.423219
0.45977,3.502133
0.48276,3.598734
0.50575,3.711662
0.52874,3.836836
0.55172,3.971533
0.57471,4.111673
0.5977,4.253173
0.62069,4.389231
0.64368,4.511683
0.66667,4.564746
,
,
0.0,3.488527
0.02299,3.49533
0.04598,3.515738
0.06897,3.548393
0.09195,3.587849
0.11494,3.623224
0.13793,3.638191
0.16092,3.627306
0.18391,3.601455
0.2069,3.583767
0.22989,3.587849
0.25287,3.620503
0.27586,3.681729
0.29885,3.736153
0.32184,3.668124
0.34483,3.700778
0.36782,3.808264
0.3908,3.938879
0.41379,4.077658
0.43678,4.215077
0.45977,4.349774
0.48276,4.479029
0.50575,4.59876
0.52874,4.706246
0.55172,4.797405
0.57471,4.862713
0.5977,4.892646
0.62069,4.868155
0.64368,4.774275
0.66667,4.650462
,
,
0.0,5.051833
0.02299,5.0668
0.04598,4.908972
0.06897,4.721212
0.09195,4.560664
0.11494,4.450457
0.13793,4.416442
0.16092,4.469505
0.18391,4.59876
0.2069,4.470866
0.22989,4.254534
0.25287,4.051807
0.27586,3.873571
0.29885,3.766085
0.32184,3.869489
0.34483,3.98786
0.36782,4.118475
0.3908,4.257255
0.41379,4.405558
0.43678,4.560664
0.45977,4.719851
0.48276,4.884482
0.50575,5.050473
0.52874,5.216464
0.55172,5.381094
0.57471,5.540281
0.5977,5.695388
0.62069,5.839609
0.64368,5.972946
0.66667,6.083153
,
,
0.0,5.189252
0.02299,5.092651
0.04598,5.096733
0.06897,5.122584
0.09195,5.129386
0.11494,5.104896
0.13793,5.024622
0.16092,4.87904
0.18391,4.685837
0.2069,4.782439
0.22989,4.99741
0.25287,5.228709
0.27586,5.458647
0.29885,5.679061
0.32184,5.879066
0.34483,6.055942
0.36782,6.212408
0.3908,6.349827
0.41379,6.472279
0.43678,6.585207
0.45977,6.687251
0.48276,6.775689
0.50575,6.828751
0.52874,6.77977
0.55172,6.643713
0.57471,6.485885
0.5977,6.328057
0.62069,6.19472
0.64368,6.115807
0.66667,6.107643
,
,
0.0,5.189252
0.02299,5.197415
0.04598,5.220545
0.06897,5.261363
0.09195,5.314425
0.11494,5.37157
0.13793,5.432796
0.16092,5.498104
0.18391,5.568853
0.2069,5.650489
0.22989,5.740286
0.25287,5.839609
0.27586,5.947095
0.29885,6.064105
0.32184,6.187918
0.34483,6.318533
0.36782,6.454591
0.3908,6.59201
0.41379,6.726707
0.43678,6.847799
0.45977,6.926713
0.48276,6.934876
0.50575,6.880453
0.52874,6.819227
0.55172,6.751198
0.57471,6.649154
0.5977,6.525342
0.62069,6.387923
0.64368,6.242341
0.66667,6.107643
,
,
0.0,5.613753
0.02299,5.646407
0.04598,5.741647
0.06897,5.877705
0.09195,6.001518
0.11494,6.031451
0.13793,5.998797
0.16092,5.996076
0.18391,6.045057
0.2069,6.128052
0.22989,6.231456
0.25287,6.345746
0.27586,6.462755
0.29885,6.579765
0.32184,6.689971
0.34483,6.793376
0.36782,6.884534
0.3908,6.964809
0.41379,7.030116
0.43678,7.087261
0.45977,7.15529
0.48276,7.25053
0.50575,7.22468
0.52874,7.254613
0.55172,7.337608
0.57471,7.445094
0.5977,7.562104
0.62069,7.675032
0.64368,7.768911
0.66667,7.826056
,
,
0.0,5.745729
0.02299,5.853215
0.04598,6.072268
0.06897,6.318533
0.09195,6.563438
0.11494,6.786572
0.13793,6.971611
0.16092,7.170257
0.18391,7.304954
0.2069,7.404276
0.22989,7.472305
0.25287,7.515844
0.27586,7.537613
0.29885,7.543056
0.32184,7.536252
0.34483,7.518565
0.36782,7.491353
0.3908,7.454618
0.41379,7.409719
0.43678,7.358016
0.45977,7.300872
0.48276,7.254613
0.50575,7.368901
0.52874,7.48319
0.55172,7.586594
0.57471,7.677753
0.5977,7.752585
0.62069,7.808368
0.64368,7.83694
0.66667,7.826056
,
,
0.0,7.687277
0.02299,7.465502
0.04598,7.177059
0.06897,6.925352
0.09195,6.764804
0.11494,6.794737
0.13793,7.000184
0.16092,7.227401
0.18391,7.50904
0.2069,7.792042
0.22989,8.062797
0.25287,8.310423
0.27586,8.525394
0.29885,8.698188
0.32184,8.823361
0.34483,8.900914
0.36782,8.932208
0.3908,8.925405
0.41379,8.89003
0.43678,8.838327
0.45977,8.783905
0.48276,8.739005
0.50575,8.715876
0.52874,8.721317
0.55172,8.752611
0.57471,8.801592
0.5977,8.858736
0.62069,8.907718
0.64368,8.941732
0.66667,8.963501
,
,
0.0,7.917215
0.02299,7.924018
0.04598,7.943066
0.06897,7.978441
0.09195,8.028782
0.11494,8.098172
0.13793,8.18661
0.16092,8.291374
0.18391,8.402943
0.2069,8.507707
0.22989,8.594784
0.25287,8.675058
0.27586,8.764856
0.29885,8.883226
0.32184,9.03289
0.34483,9.211126
0.36782,9.402968
0.3908,9.581204
0.41379,9.715901
0.43678,9.788013
0.45977,9.807061
0.48276,9.782571
0.50575,9.724066
0.52874,9.634267
0.55172,9.521338
0.57471,9.390723
0.5977,9.253304
0.62069,9.121328
0.64368,9.016563
0.66667,8.963501
,
,
0.0,7.917215
0.02299,8.148514
0.04598,8.466888
0.06897,8.789347
0.09195,9.107723
0.11494,9.415214
0.13793,9.475079
0.16092,9.378478
0.18391,9.310449
0.2069,9.291401
0.22989,9.328136
0.25287,9.413853
0.27586,9.528142
0.29885,9.650595
0.32184,9.771686
0.34483,9.888696
0.36782,10.004345
0.3908,10.1336
0.41379,10.294148
0.43678,10.492793
0.45977,10.709126
0.48276,10.922736
0.50575,11.122741
0.52874,11.298256
0.55172,11.44792
0.57471,11.403021
0.5977,11.238391
0.62069,11.100972
0.64368,11.011174
0.66667,10.979881
,
,
0.0,9.937676
0.02299,9.919989
0.04598,9.871008
0.06897,9.794815
0.09195,9.695493
0.11494,9.585286
0.13793,9.710459
0.16092,9.989378
0.18391,10.250609
0.2069,10.492793
0.22989,10.715928
0.25287,10.922736
0.27586,11.115939
0.29885,11.298256
0.32184,11.469689
0.34483,11.627517
0.36782,11.767656
0.3908,11.881945
0.41379,11.962219
0.43678,12.004397
0.45977,12.001676
0.48276,11.952695
0.50575,11.860175
0.52874,11.72956
0.55172,11.573093
0.57471,11.567651
0.5977,11.658811
0.62069,11.722757
0.64368,11.758132
0.66667,11.770378
,
,
0.66667,-9.302285
0.690482,-9.334939
0.71429,-9.368954
0.738102,-9.401608
0.76191,-9.434261
0.785722,-9.465554
0.80953,-9.495487
0.833342,-9.522698
0.85715,-9.54719
0.880962,-9.568959
0.90477,-9.586646
0.928582,-9.600252
0.952389,-9.611136
0.976202,-9.61794
1.000009,-9.6193
,
,
0.66667,-9.302285
0.690482,-9.272352
0.71429,-9.249222
0.738102,-9.231535
0.76191,-9.21793
0.785722,-9.209765
0.80953,-9.204323
0.833342,-9.200241
0.85715,-9.198881
0.880962,-9.200241
0.90477,-9.200241
0.928582,-9.201602
0.952389,-9.202963
0.976202,-9.202963
1.000009,-9.204323
,
,
0.66667,-4.688559
0.690482,-4.694001
0.71429,-4.714409
0.738102,-4.751145
0.76191,-4.798766
0.785722,-4.849107
0.80953,-4.899448
0.833342,-4.947069
0.85715,-4.989247
0.880962,-5.027343
0.90477,-5.058636
0.928582,-5.083127
0.952389,-5.100814
0.976202,-5.111699
1.000009,-5.11578
,
,
0.66667,-4.066773
0.690482,-4.083101
0.71429,-4.05725
0.738102,-4.027317
0.76191,-4.042283
0.785722,-4.066773
0.80953,-4.093985
0.833342,-4.123918
0.85715,-4.15249
0.880962,-4.178341
0.90477,-4.200111
0.928582,-4.217798
0.952389,-4.231403
0.976202,-4.238207
1.000009,-4.240928
,
,
0.66667,-4.066773
0.690482,-4.036841
0.71429,-4.024596
0.738102,-3.990581
0.76191,-3.888537
0.785722,-3.759283
0.80953,-3.608258
0.833342,-3.440907
0.85715,-3.382402
0.880962,-3.420498
0.90477,-3.453152
0.928582,-3.477642
0.952389,-3.49533
0.976202,-3.506215
1.000009,-3.510297
,
,
0.66667,-2.917084
0.690482,-2.922526
0.71429,-3.001439
0.738102,-3.081713
0.76191,-3.155185
0.785722,-3.223214
0.80953,-3.283079
0.833342,-3.336142
0.85715,-3.262671
0.880962,-3.078993
0.90477,-2.898036
0.928582,-2.730684
0.952389,-2.590544
0.976202,-2.493943
1.000009,-2.459929
,
,
0.66667,-2.816401
0.690482,-2.884429
0.71429,-2.834088
0.738102,-2.740208
0.76191,-2.615035
0.785722,-2.48578
0.80953,-2.454486
0.833342,-2.431357
0.85715,-2.415029
0.880962,-2.405505
0.90477,-2.398703
0.928582,-2.395981
0.952389,-2.394621
0.976202,-2.394621
1.000009,-2.394621
,
,
0.66667,-2.816401
0.690482,-2.726602
0.71429,-2.649049
0.738102,-2.582381
0.76191,-2.527958
0.785722,-2.465371
0.80953,-2.295298
0.833342,-2.112981
0.85715,-1.92386
0.880962,-1.73474
0.90477,-1.552422
0.928582,-1.389152
0.952389,-1.255815
0.976202,-1.167378
1.000009,-1.137445
,
,
0.66667,0.435386
0.690482,0.447631
0.71429,0.481645
0.738102,0.54015
0.76191,0.617703
0.785722,0.708862
0.80953,0.805463
0.833342,0.887098
0.85715,0.923834
0.880962,0.877574
0.90477,0.745598
0.928582,0.574165
0.952389,0.413616
0.976202,0.299328
1.000009,0.25851
,
,
0.66667,4.564746
0.690482,4.336169
0.71429,4.040922
0.738102,3.717104
0.76191,3.379681
0.785722,3.042257
0.80953,2.72116
0.833342,2.436799
0.85715,2.225909
0.880962,2.126586
0.90477,2.144274
0.928582,2.234072
0.952389,2.242236
0.976202,2.122505
1.000009,2.080327
,
,
0.66667,4.564746
0.690482,4.659986
0.71429,4.674953
0.738102,4.579712
0.76191,4.38651
0.785722,4.12936
0.80953,3.838196
0.833342,3.532065
0.85715,3.227296
0.880962,2.93341
0.90477,2.661294
0.928582,2.427275
0.952389,2.347
0.976202,2.442241
1.000009,2.478977
,
,
0.66667,4.650462
0.690482,4.711689
0.71429,4.76203
0.738102,4.783799
0.76191,4.775636
0.785722,4.741621
0.80953,4.683116
0.833342,4.600121
0.85715,4.495356
0.880962,4.368822
0.90477,4.224601
0.928582,4.072216
0.952389,3.930716
0.976202,3.82323
1.000009,3.782412
,
,
0.66667,6.083153
0.690482,5.968864
0.71429,5.900836
0.738102,5.922605
0.76191,6.023288
0.785722,6.163427
0.80953,6.289961
0.833342,6.340303
0.85715,6.266831
0.880962,6.107643
0.90477,5.975667
0.928582,5.873623
0.952389,5.802874
0.976202,5.760695
1.000009,5.74709
,
,
0.66667,6.107643
0.690482,6.16887
0.71429,6.284519
0.738102,6.353909
0.76191,6.398808
0.785722,6.428741
0.80953,6.473639
0.833342,6.443707
0.85715,6.338942
0.880962,6.322615
0.90477,6.303567
0.928582,6.28724
0.952389,6.273634
0.976202,6.265471
1.000009,6.261389
,
,
0.66667,6.107643
0.690482,6.201523
0.71429,6.2886
0.738102,6.436904
0.76191,6.597452
0.785722,6.688611
0.80953,6.611058
0.833342,6.582486
0.85715,6.721265
0.880962,6.847799
0.90477,6.948482
0.928582,7.024675
0.952389,7.075016
0.976202,7.104949
1.000009,7.114472
,
,
0.66667,7.826056
0.690482,7.760748
0.71429,7.639657
0.738102,7.476387
0.76191,7.309035
0.785722,7.219237
0.80953,7.313118
0.833342,7.518565
0.85715,7.758028
0.880962,8.004292
0.90477,8.243753
0.928582,8.407023
0.952389,8.558048
0.976202,8.672337
1.000009,8.714515
,
,
0.66667,7.826056
0.690482,7.838301
0.71429,7.813811
0.738102,7.778435
0.76191,7.755306
0.785722,7.758028
0.80953,7.792042
0.833342,7.85871
0.85715,7.959393
0.880962,8.090009
0.90477,8.245114
0.928582,8.472331
0.952389,8.675058
0.976202,8.834246
1.000009,8.902275
,
,
0.66667,8.963501
0.690482,8.981189
0.71429,9.028809
0.738102,9.088675
0.76191,9.164866
0.785722,9.245141
0.80953,9.322695
0.833342,9.390723
0.85715,9.439704
0.880962,9.466915
0.90477,9.469637
0.928582,9.442425
0.952389,9.389362
0.976202,9.324055
1.000009,9.285958
,
,
0.66667,8.963501
0.690482,8.987991
0.71429,9.069626
0.738102,9.204324
0.76191,9.364872
0.785722,9.536305
0.80953,9.705017
0.833342,9.862844
0.85715,9.998902
0.880962,10.100945
0.90477,10.152648
0.928582,10.144484
0.952389,10.090061
0.976202,10.026114
1.000009,9.998902
,
,
0.66667,10.979881
0.690482,11.011174
0.71429,11.092809
0.738102,11.209818
0.76191,11.345877
0.785722,11.490098
0.80953,11.390776
0.833342,11.272406
0.85715,11.148592
0.880962,11.032944
0.90477,10.940424
0.928582,10.886001
0.952389,10.868313
0.976202,10.869674
1.000009,10.871035
,
,
0.66667,11.770378
0.690482,11.758132
0.71429,11.724117
0.738102,11.666973
0.76191,11.592141
0.785722,11.498261
0.80953,11.63432
0.833342,11.769017
0.85715,11.89283
0.880962,11.998955
0.90477,12.088754
0.928582,12.158142
0.952389,12.208484
0.976202,12.238417
1.000009,12.247941
,
,
1.000009,-9.6193
1.024064,-9.630184
1.048127,-9.660117
1.072181,-9.705017
1.096235,-9.760801
1.120298,-9.824747
1.144348,-9.892777
1.168402,-9.963527
1.192465,-10.035638
1.216519,-10.106388
1.240573,-10.177137
1.264631,-10.246528
1.288686,-10.311835
1.31274,-10.374422
1.336803,-10.432927
1.360857,-10.48735
1.384907,-10.537692
1.40897,-10.58259
1.433024,-10.623408
1.457078,-10.657423
1.481141,-10.684634
1.505195,-10.707765
1.529245,-10.722731
1.553308,-10.733615
1.577362,-10.736337
,
,
1.000009,-9.204323
1.024064,-9.200241
1.048127,-9.190718
1.072181,-9.178473
1.096235,-9.167587
1.120298,-9.159425
1.144348,-9.156703
1.168402,-9.159425
1.192465,-9.167587
1.216519,-9.179832
1.240573,-9.196159
1.264631,-9.215208
1.288686,-9.236978
1.31274,-9.260107
1.336803,-9.284597
1.360857,-9.309088
1.384907,-9.332217
1.40897,-9.353988
1.433024,-9.374396
1.457078,-9.393444
1.481141,-9.408411
1.505195,-9.420655
1.529245,-9.43018
1.553308,-9.435622
1.577362,-9.436983
,
,
1.000009,-5.11578
1.024064,-5.106256
1.048127,-5.077684
1.072181,-5.030064
1.096235,-4.964756
1.120298,-4.8804
1.144348,-4.779717
1.168402,-4.665429
1.192465,-4.553861
1.216519,-4.510323
1.240573,-4.564746
1.264631,-4.64502
1.288686,-4.728015
1.31274,-4.80829
1.336803,-4.884481
1.360857,-4.953871
1.384907,-5.016458
1.40897,-5.073603
1.433024,-5.122584
1.457078,-5.164762
1.481141,-5.198776
1.505195,-5.225987
1.529245,-5.246396
1.553308,-5.257281
1.577362,-5.261363
,
,
1.000009,-4.240928
1.024064,-4.231403
1.048127,-4.204192
1.072181,-4.162014
1.096235,-4.118475
1.120298,-4.102149
1.144348,-4.137523
1.168402,-4.206913
1.192465,-4.270861
1.216519,-4.251812
1.240573,-4.118475
1.264631,-3.938879
1.288686,-3.740235
1.31274,-3.525263
1.336803,-3.298046
1.360857,-3.061305
1.384907,-2.817761
1.40897,-2.568775
1.433024,-2.319789
1.457078,-2.074884
1.481141,-1.840865
1.505195,-1.629975
1.529245,-1.455821
1.553308,-1.338811
1.577362,-1.296633
,
,
1.000009,-3.510297
1.024064,-3.529345
1.048127,-3.582407
1.072181,-3.653158
1.096235,-3.718465
1.120298,-3.744316
1.144348,-3.698056
1.168402,-3.597373
1.192465,-3.464036
1.216519,-3.30893
1.240573,-3.137498
1.264631,-2.953819
1.288686,-2.759256
1.31274,-2.555169
1.336803,-2.344279
1.360857,-2.125226
1.384907,-1.90073
1.40897,-1.670792
1.433024,-1.561946
1.457078,-1.491196
1.481141,-1.427248
1.505195,-1.374186
1.529245,-1.332008
1.553308,-1.306157
1.577362,-1.296633
,
,
1.000009,-2.459929
1.024064,-2.455847
1.048127,-2.446323
1.072181,-2.429996
1.096235,-2.408226
1.120298,-2.378294
1.144348,-2.344279
1.168402,-2.302101
1.192465,-2.255841
1.216519,-2.202779
1.240573,-2.144274
1.264631,-2.081687
1.288686,-2.013658
1.31274,-1.942908
1.336803,-1.868076
1.360857,-1.791884
1.384907,-1.714331
1.40897,-1.636778
1.433024,-1.439493
1.457078,-1.206834
1.481141,-0.975536
1.505195,-0.75104
1.529245,-0.546953
1.553308,-0.389126
1.577362,-0.326539
,
,
1.000009,-2.394621
1.024064,-2.36877
1.048127,-2.295298
1.072181,-2.186452
1.096235,-2.053115
1.120298,-1.906172
1.144348,-1.748345
1.168402,-1.586436
1.192465,-1.423167
1.216519,-1.259897
1.240573,-1.10207
1.264631,-0.948324
1.288686,-0.804103
1.31274,-0.669405
1.336803,-0.600016
1.360857,-0.545593
1.384907,-0.495251
1.40897,-0.450352
1.433024,-0.412256
1.457078,-0.382323
1.481141,-0.359193
1.505195,-0.342866
1.529245,-0.333342
1.553308,-0.3279
1.577362,-0.326539
,
,
1.000009,-1.137445
